,ID,Toán,Lí,Hóa,Sinh,Văn,Ngoại ngữ,GDCD,Địa,Sử
1,02000001,8.2,8.0,8.5,7.75,7.0,8.2,,,
2,02000002,8.8,,,,7.0,9.8,9.0,8.0,7.75
3,02000003,7.8,,,,6.5,9.2,9.25,7.25,7.75
4,02000004,6.6,,,,7.0,9.6,9.25,7.5,6.0
5,02000005,8.0,5.75,8.0,7.25,6.75,8.6,,,
6,02000006,7.8,,,,6.5,8.8,8.25,6.5,6.75
7,02000007,8.2,5.5,7.25,4.75,6.0,5.0,,,
8,02000008,7.6,6.25,7.0,5.25,5.5,9.0,,,
9,02000009,7.6,6.5,8.25,5.75,7.25,9.0,,,
10,02000010,7.4,,,,7.5,9.2,8.0,7.0,7.25
11,02000011,7.6,5.75,6.25,5.75,7.5,8.8,,,
12,02000012,8.4,8.25,4.75,4.75,5.25,9.4,,,
13,02000013,8.4,5.0,8.0,7.5,8.0,7.6,,,
14,02000014,7.0,6.5,6.25,6.0,7.75,8.6,,,
15,02000015,8.4,7.25,7.25,6.0,5.75,9.2,,,
16,02000016,8.0,6.25,8.25,7.75,7.75,9.2,,,
17,02000017,7.2,6.5,7.0,5.25,7.5,8.2,,,
18,02000018,8.8,,,,8.0,9.4,9.0,5.5,5.75
19,02000019,7.8,7.75,8.25,6.75,7.0,9.6,,,
20,02000020,8.4,5.75,6.5,4.5,6.5,8.8,,,
21,02000021,8.4,,,,8.0,9.2,10.0,9.0,7.5
22,02000022,7.4,,,,7.25,9.8,9.5,7.25,7.75
23,02000023,7.2,5.5,7.5,3.5,7.75,7.6,,,
24,02000024,5.6,,,,6.75,9.0,10.0,7.75,6.5
25,02000025,7.8,6.0,7.25,4.25,7.5,9.4,,,
26,02000026,7.8,5.25,4.25,3.75,4.25,8.6,,,
27,02000027,8.4,7.75,6.25,5.75,6.75,9.8,,,
28,02000028,4.6,,,,7.5,6.0,5.75,6.5,2.75
29,02000030,7.6,8.0,8.25,4.25,6.75,,,,
30,02000031,8.0,,,,7.25,8.0,8.0,6.5,4.75
31,02000032,8.6,6.5,7.0,6.0,6.75,8.6,,,
32,02000033,7.6,8.25,7.25,4.5,3.75,5.8,,,
33,02000034,7.8,3.0,4.5,4.25,7.0,9.4,,,
34,02000035,7.4,4.0,6.5,7.25,7.5,7.4,,,
35,02000036,8.4,6.75,6.5,5.25,5.25,9.8,,,
36,02000037,8.0,,,,7.0,9.2,8.25,5.75,4.25
37,02000038,8.6,6.75,7.75,4.0,5.75,6.0,,,
38,02000039,8.2,7.75,6.5,5.75,7.25,8.8,,,
39,02000040,6.6,,,,6.5,8.0,8.5,5.5,3.75
40,02000041,8.0,7.5,7.25,7.25,7.5,9.4,,,
41,02000042,8.6,6.75,5.25,4.5,5.0,8.8,,,
42,02000043,8.8,7.0,7.25,5.5,5.5,8.2,,,
43,02000044,8.0,7.0,8.0,4.0,6.75,6.2,,,
44,02000045,8.4,6.5,7.75,6.25,5.75,9.8,,,
45,02000046,7.6,7.0,6.5,5.0,5.75,9.0,,,
46,02000047,8.4,6.25,8.0,5.25,5.25,9.4,,,
47,02000048,7.8,7.25,7.0,3.25,3.75,9.6,,,
48,02000049,8.2,8.25,7.75,5.0,5.0,8.4,,,
49,02000050,8.8,7.75,9.0,4.75,6.75,7.2,,,
50,02000051,8.6,8.5,8.0,8.75,7.5,8.8,,,
51,02000052,7.2,6.5,6.25,4.25,5.5,8.8,,,
52,02000053,9.8,8.0,9.0,5.0,6.25,8.8,,,
53,02000054,7.4,5.25,6.5,5.25,7.5,,,,
54,02000055,8.0,7.5,6.75,6.0,5.25,9.4,,,
55,02000056,7.2,,,,7.25,8.6,8.25,7.75,5.5
56,02000057,6.0,,,,8.0,9.6,8.5,7.25,3.75
57,02000058,8.4,5.75,8.5,7.25,7.25,7.2,,,
58,02000059,7.6,,,,7.75,9.0,8.0,6.5,7.0
59,02000060,8.6,6.5,8.25,9.0,7.25,9.0,,,
60,02000061,7.8,,,,7.25,8.4,8.0,7.25,3.5
61,02000062,7.6,5.75,6.5,6.0,7.75,9.6,,,
62,02000063,6.2,,,,8.0,9.0,8.75,9.0,9.0
63,02000064,6.8,,,,6.25,9.4,6.75,6.75,4.75
64,02000065,7.2,,,,7.0,9.6,6.75,7.25,7.75
65,02000066,9.0,6.25,6.5,5.75,7.5,8.8,,,
66,02000067,7.2,7.75,6.75,4.25,7.0,9.6,,,
67,02000068,8.4,,,,6.75,9.0,8.75,6.5,5.25
68,02000069,8.0,6.75,8.25,6.75,6.5,9.0,,,
69,02000071,8.8,7.75,7.75,5.75,8.0,9.0,,,
70,02000072,6.8,,,,7.0,9.6,8.5,7.5,6.25
71,02000073,5.4,,,,4.5,8.4,9.75,6.75,5.0
72,02000074,8.4,7.0,8.75,7.75,7.25,7.8,,,
73,02000075,8.4,8.0,8.0,6.5,7.25,,,,
74,02000076,8.4,8.25,7.5,6.75,7.0,6.2,,,
75,02000078,9.0,8.0,3.75,4.5,4.5,9.2,,,
76,02000079,7.2,7.5,7.0,6.25,5.25,9.2,,,
77,02000080,8.2,,,,8.25,10.0,9.5,7.5,8.5
78,02000081,7.0,,,,6.5,9.0,9.5,7.5,6.0
79,02000082,8.4,7.0,3.0,6.0,6.75,7.6,,,
80,02000083,8.4,4.0,4.0,5.5,6.0,9.0,,,
81,02000084,8.2,8.5,5.0,4.25,5.0,9.0,,,
82,02000085,7.6,6.75,7.0,4.0,6.75,8.8,,,
83,02000086,8.2,6.0,4.75,4.75,6.5,10.0,,,
84,02000087,7.6,5.5,7.25,7.0,6.75,8.6,,,
85,02000088,7.8,,,,8.25,9.0,8.75,5.5,6.0
86,02000089,7.8,5.75,6.75,5.25,8.0,9.2,,,
87,02000090,8.6,8.25,8.0,5.5,7.0,7.4,,,
88,02000091,8.0,8.75,8.25,5.5,5.75,9.2,,,
89,02000092,8.8,8.75,7.75,3.25,6.75,9.0,,,
90,02000093,7.6,7.5,5.5,5.5,7.5,9.0,,,
91,02000094,8.0,5.5,6.25,7.25,6.75,8.8,,,
92,02000095,8.0,6.75,7.0,6.25,6.33,9.4,,,
93,02000096,7.8,7.75,6.75,5.5,5.75,,,,
94,02000097,8.4,3.75,8.25,3.25,6.5,9.2,,,
95,02000099,7.4,,,,6.75,8.0,8.0,6.0,5.5
96,02000100,8.2,,,,7.75,8.4,8.0,7.75,6.5
97,02000101,8.6,6.0,8.5,9.75,7.75,8.8,,,
98,02000102,8.4,,,,7.0,8.0,7.5,6.75,5.25
99,02000103,8.4,7.75,7.75,4.0,8.0,8.0,,,
100,02000104,8.2,8.25,7.75,4.5,5.75,6.4,,,
101,02000105,8.6,7.5,8.25,5.0,7.0,7.6,,,
102,02000106,7.4,5.25,3.75,5.0,4.0,9.8,,,
103,02000107,7.8,5.25,6.5,4.25,7.25,9.2,,,
104,02000108,5.6,,,,6.5,6.6,8.5,7.5,5.25
105,02000109,8.8,8.25,6.25,6.0,7.0,9.6,,,
106,02000110,8.4,,,,7.25,9.4,7.5,6.75,5.75
107,02000111,8.4,6.5,7.5,5.75,6.75,9.4,,,
108,02000112,8.0,6.75,7.25,4.5,7.75,9.2,,,
109,02000113,8.4,7.5,5.25,4.5,7.5,8.4,,,
110,02000114,8.0,,,,7.75,9.6,9.25,7.75,6.0
111,02000115,7.4,,,,7.25,9.4,9.5,7.75,7.75
112,02000116,7.6,,,,7.75,8.6,7.25,7.75,6.75
113,02000117,7.6,,,,6.5,9.2,7.0,6.0,5.75
114,02000118,7.2,6.25,6.5,5.5,7.0,9.2,,,
115,02000119,6.0,5.0,5.0,3.75,5.75,8.2,,,
116,02000120,8.0,,,,6.5,8.4,8.0,6.5,4.25
117,02000122,6.8,,,,6.0,9.2,8.5,7.25,5.5
118,02000123,8.0,5.25,4.75,4.75,8.0,8.8,,,
119,02000124,6.8,5.0,5.25,4.75,7.75,,,,
120,02000125,7.2,,,,7.25,9.0,8.25,6.75,5.75
121,02000126,8.0,,,,7.75,8.6,9.75,6.75,6.5
122,02000127,8.2,6.75,7.5,6.5,7.25,8.8,,,
123,02000128,8.6,7.75,8.0,7.25,8.25,8.8,,,
124,02000129,9.0,8.25,8.0,5.0,5.25,7.4,,,
125,02000130,7.4,7.0,7.75,7.5,7.75,9.0,,,
126,02000131,8.8,6.5,7.75,5.5,7.0,7.8,,,
127,02000132,8.6,8.25,8.0,8.25,7.5,9.4,,,
128,02000133,8.4,7.5,7.0,3.5,6.5,7.6,,,
129,02000134,8.6,7.5,8.0,5.75,5.25,8.8,,,
130,02000135,6.8,6.0,7.25,5.25,6.25,8.0,,,
131,02000136,7.8,6.25,7.25,6.0,6.0,8.0,,,
132,02000137,8.8,8.25,6.25,4.25,5.75,10.0,,,
133,02000138,8.2,8.5,7.25,5.75,7.25,9.6,,,
134,02000139,9.2,8.25,5.0,5.25,6.25,8.8,,,
135,02000140,8.0,7.75,5.75,4.75,8.0,9.2,,,
136,02000141,6.6,,,,6.5,9.2,9.0,6.75,6.5
137,02000142,7.6,,,,7.75,8.6,8.0,7.25,5.0
138,02000143,7.8,,,,7.0,8.6,6.5,6.5,4.0
139,02000144,7.0,5.5,6.0,5.5,5.75,7.8,,,
140,02000145,8.4,4.5,7.75,4.0,7.0,8.8,,,
141,02000146,8.2,,,,7.0,9.8,8.5,8.0,6.5
142,02000147,7.8,7.75,6.0,5.25,6.5,9.6,,,
143,02000148,7.8,5.0,5.0,5.75,5.0,9.2,,,
144,02000149,7.4,6.5,8.0,6.5,7.25,,,,
145,02000150,8.4,5.75,7.0,4.5,3.75,9.8,,,
146,02000151,8.4,6.75,6.0,5.25,6.5,9.8,,,
147,02000152,8.6,6.75,5.25,4.5,6.5,9.6,,,
148,02000153,9.0,7.25,6.25,5.5,6.5,9.0,,,
149,02000154,6.2,5.25,5.75,5.25,6.25,8.8,,,
150,02000155,8.0,6.25,7.0,4.5,4.5,7.6,,,
151,02000156,8.6,7.5,8.0,8.75,5.75,8.8,,,
152,02000157,8.8,8.25,7.0,6.0,6.5,9.4,,,
153,02000158,7.8,8.5,7.75,5.5,6.75,7.2,,,
154,02000159,8.0,8.0,5.75,5.0,5.5,8.0,,,
155,02000160,7.8,,,,6.5,8.6,8.75,7.25,6.0
156,02000161,7.2,6.5,8.0,5.5,6.25,8.6,,,
157,02000162,8.2,,,,5.75,10.0,9.25,7.75,6.75
158,02000163,7.4,5.25,5.75,4.0,6.75,8.8,,,
159,02000164,8.4,8.5,7.25,6.0,7.5,9.8,,,
160,02000165,9.0,6.75,3.75,4.0,5.5,8.6,,,
161,02000166,7.8,8.0,6.25,4.0,6.5,6.0,,,
162,02000167,7.8,7.25,7.5,3.75,7.25,8.8,,,
163,02000168,8.4,6.0,7.75,5.75,7.75,,,,
164,02000169,9.0,5.75,6.25,7.75,7.0,9.0,,,
165,02000170,9.0,7.25,8.25,5.5,6.75,8.6,,,
166,02000171,7.8,,,,6.75,9.0,9.5,7.25,4.75
167,02000172,7.8,7.25,8.5,6.25,7.5,9.8,,,
168,02000173,7.0,6.75,7.5,6.75,7.75,7.6,,,
169,02000174,7.8,5.25,7.25,4.5,7.25,5.2,,,
170,02000175,7.4,5.25,9.0,8.25,7.5,9.0,,,
171,02000176,7.6,,,,7.75,8.0,8.25,7.5,6.0
172,02000177,8.6,8.25,8.5,5.75,7.5,9.0,,,
173,02000178,7.8,6.75,8.0,8.5,7.25,8.8,,,
174,02000179,5.0,,,,8.5,9.0,9.0,8.75,8.25
175,02000180,7.4,7.75,5.0,6.25,6.0,7.2,,,
176,02000181,8.2,6.0,7.75,8.25,6.75,9.2,,,
177,02000182,7.6,5.0,5.25,4.5,4.0,9.6,,,
178,02000183,8.8,8.25,7.5,3.0,6.0,3.6,,,
179,02000184,7.6,,,,7.75,7.2,7.75,6.75,5.5
180,02000185,8.0,5.75,7.25,5.25,6.25,9.2,,,
181,02000186,8.8,8.5,6.25,4.75,5.5,8.8,,,
182,02000187,6.4,,,,7.25,9.4,9.5,7.0,9.0
183,02000188,7.6,6.5,4.75,5.25,7.5,8.2,,,
184,02000190,6.6,5.25,5.5,5.5,7.25,4.4,,,
185,02000191,6.8,6.0,7.75,7.0,7.5,4.0,,,
186,02000192,8.2,6.5,6.75,6.25,7.0,,,,
187,02000193,8.2,6.25,6.75,5.0,7.25,7.8,,,
188,02000194,8.6,7.75,6.0,5.5,5.25,9.8,,,
189,02000195,8.2,,,,7.5,8.4,7.75,7.25,6.0
190,02000196,8.2,4.75,7.0,5.5,7.0,9.0,,,
191,02000197,8.6,6.75,8.5,8.25,6.0,9.6,,,
192,02000198,7.8,,,,7.25,8.8,8.5,7.75,6.5
193,02000199,6.6,6.0,5.75,6.0,6.75,8.8,,,
194,02000201,9.0,8.25,6.25,4.75,5.75,9.0,,,
195,02000202,8.2,7.0,8.25,2.5,6.75,6.8,,,
196,02000203,7.2,6.0,7.75,7.25,7.25,7.2,,,
197,02000204,9.0,7.0,7.25,7.0,6.5,9.6,,,
198,02000205,8.8,7.5,5.75,6.0,6.0,9.4,,,
199,02000206,7.2,7.75,6.5,4.5,7.25,8.0,,,
200,02000207,8.8,7.75,7.75,5.75,5.0,8.2,,,
201,02000208,8.4,7.5,7.75,5.5,6.5,9.2,,,
202,02000209,9.6,8.25,8.25,6.75,7.5,8.0,,,
203,02000210,8.6,7.5,8.75,6.25,5.25,8.8,,,
204,02000211,8.2,7.0,7.25,5.25,7.25,,,,
205,02000212,7.8,,,,7.25,7.2,8.0,7.25,4.75
206,02000213,9.0,8.0,7.75,7.25,6.5,8.4,,,
207,02000214,7.8,,,,8.0,9.2,9.25,8.5,7.75
208,02000215,8.4,7.25,5.25,4.0,6.5,9.0,,,
209,02000216,8.2,7.25,7.75,6.75,6.5,5.6,,,
210,02000217,7.6,,,,7.75,8.0,9.25,8.25,6.0
211,02000218,7.8,5.75,6.25,3.75,5.0,8.6,,,
212,02000219,8.4,7.25,5.75,6.75,7.0,10.0,,,
213,02000220,8.2,8.25,5.75,4.75,7.0,9.0,,,
214,02000221,8.4,7.75,7.0,5.5,4.75,8.0,,,
215,02000222,6.2,5.75,5.25,5.0,6.5,8.2,,,
216,02000223,6.0,,,,7.0,8.4,9.0,7.5,5.25
217,02000224,6.8,,,,6.0,9.8,9.0,7.75,6.5
218,02000225,8.6,6.5,5.25,6.0,6.5,9.8,,,
219,02000226,7.6,6.0,4.75,5.25,6.75,8.2,,,
220,02000227,7.0,5.0,4.25,4.25,6.5,7.6,,,
221,02000228,8.0,7.5,6.5,5.0,7.75,8.8,,,
222,02000229,7.4,,,,7.5,8.6,6.5,6.75,5.5
223,02000230,7.6,7.5,7.25,6.25,6.75,9.2,,,
224,02000231,7.8,,,,7.0,8.6,7.5,7.5,5.0
225,02000232,8.0,6.75,7.75,8.75,6.25,8.6,,,
226,02000233,8.4,,,,8.0,9.6,8.5,8.25,6.0
227,02000234,5.8,,,,7.5,8.6,8.75,8.25,5.5
228,02000235,7.8,,,,6.75,8.8,8.5,8.0,6.5
229,02000236,8.4,6.0,7.5,5.0,6.0,9.6,,,
230,02000237,7.6,,,,7.0,9.4,9.25,7.5,6.25
231,02000238,7.6,,,,6.75,9.0,9.5,8.25,6.25
232,02000239,7.6,,,,6.5,8.6,9.75,7.25,5.5
233,02000240,6.2,,,,7.5,9.2,8.0,6.75,4.5
234,02000241,7.4,5.5,6.5,6.75,8.0,,,,
235,02000242,8.6,7.5,5.5,5.5,7.75,9.2,,,
236,02000244,7.4,,,,7.5,9.2,7.25,7.5,8.25
237,02000245,8.2,,,,6.66,9.0,9.75,8.75,8.0
238,02000246,6.4,,,,6.83,8.2,7.75,8.25,4.0
239,02000247,7.2,,,,6.25,9.6,9.5,8.75,6.75
240,02000248,8.4,4.5,8.25,5.25,7.0,9.8,,,
241,02000249,7.0,6.5,4.25,4.75,7.25,8.4,,,
242,02000250,6.6,,,,7.75,8.0,8.75,7.5,5.75
243,02000251,7.8,,,,7.75,8.8,8.75,7.0,3.75
244,02000252,7.2,,,,7.25,7.6,8.5,6.75,5.25
245,02000253,8.2,7.75,8.0,4.75,7.25,6.0,,,
246,02000254,8.0,,,,8.25,8.6,9.25,8.25,8.25
247,02000255,8.4,6.5,7.25,8.0,7.5,7.2,,,
248,02000256,8.8,7.0,5.0,4.75,5.25,9.0,,,
249,02000257,9.0,7.25,7.5,6.25,6.0,7.0,,,
250,02000258,5.4,,,,6.25,9.4,9.0,7.5,7.5
251,02000259,7.4,4.75,5.75,5.0,6.5,9.2,,,
252,02000260,8.0,6.5,5.5,6.25,6.75,9.8,,,
253,02000261,8.0,6.25,5.25,5.75,5.75,10.0,,,
254,02000262,7.8,6.75,7.0,4.25,5.75,7.6,,,
255,02000263,7.8,7.0,7.0,4.75,5.5,8.0,,,
256,02000264,9.0,7.75,7.75,5.5,7.5,9.0,,,
257,02000265,5.8,,,,7.0,9.0,8.0,7.75,6.25
258,02000266,8.4,6.0,7.0,5.25,7.5,9.2,,,
259,02000267,8.2,5.75,7.25,4.75,5.91,9.0,,,
260,02000268,7.8,6.5,5.0,5.0,7.25,9.0,,,
261,02000269,8.0,,,,8.0,9.6,8.75,7.25,5.75
262,02000270,7.4,6.5,7.75,4.0,7.25,7.6,,,
263,02000271,4.2,5.0,3.75,2.0,4.5,8.2,,,
264,02000272,7.6,4.75,6.75,6.25,5.5,9.6,,,
265,02000273,8.4,7.75,7.0,5.25,8.0,8.6,,,
266,02000274,8.0,6.5,5.0,5.5,6.25,7.2,,,
267,02000275,7.0,7.75,8.0,7.25,7.25,6.4,,,
268,02000276,6.4,7.0,6.5,4.75,5.25,9.4,,,
269,02000277,8.6,8.75,8.0,7.0,6.75,7.6,,,
270,02000278,7.4,6.75,5.0,3.5,7.25,9.4,,,
271,02000279,8.2,5.5,5.25,5.75,6.25,9.6,,,
272,02000280,8.8,6.75,4.25,5.25,6.25,8.8,,,
273,02000281,8.4,,,,7.25,9.6,9.0,7.25,7.25
274,02000282,6.6,7.5,7.5,5.5,7.25,,,,
275,02000283,7.8,7.5,6.5,5.75,7.5,9.4,,,
276,02000284,8.4,7.75,5.25,5.5,5.25,9.4,,,
277,02000285,7.8,,,,8.25,9.6,9.5,7.75,7.25
278,02000286,7.6,,,,7.5,8.8,8.25,8.0,7.25
279,02000287,7.0,,,,7.75,9.4,8.0,8.0,7.0
280,02000288,8.2,8.0,7.25,7.25,6.5,9.6,,,
281,02000289,7.6,,,,7.25,9.4,7.75,8.5,6.0
282,02000290,8.2,6.5,8.5,8.5,7.0,9.2,,,
283,02000291,6.8,,,,6.25,7.2,8.25,6.75,4.25
284,02000292,7.8,5.25,6.0,4.25,7.25,9.2,,,
285,02000293,8.2,3.25,4.0,3.75,5.25,9.4,,,
286,02000294,6.8,5.75,5.25,4.75,4.5,8.4,,,
287,02000295,8.8,7.75,7.75,6.75,6.25,,,,
288,02000296,8.6,,,,6.25,8.4,8.5,8.0,7.5
289,02000297,8.8,6.5,6.75,7.0,6.25,9.8,,,
290,02000298,7.8,,,,9.0,9.4,9.25,6.5,7.25
291,02000299,8.2,6.75,6.75,5.0,7.25,7.8,,,
292,02000300,8.4,,,,8.0,9.6,8.0,7.75,6.5
293,02000301,7.2,5.5,3.75,4.5,7.75,8.4,,,
294,02000302,8.0,8.25,7.5,5.25,7.5,6.8,,,
295,02000303,7.8,,,,7.5,8.8,9.25,7.0,7.25
296,02000304,6.8,5.5,8.0,4.5,7.0,8.8,,,
297,02000305,9.0,8.25,7.5,7.75,7.75,9.4,,,
298,02000306,7.6,6.25,5.75,4.5,7.0,7.4,,,
299,02000307,9.0,,,,7.0,9.8,8.0,8.0,7.75
300,02000308,8.0,6.75,7.0,5.75,7.0,7.8,,,
301,02000309,8.4,5.5,7.75,6.75,6.75,7.4,,,
302,02000310,8.4,,,,8.5,9.0,9.0,8.5,8.25
303,02000311,7.8,7.75,7.75,6.25,7.75,9.0,,,
304,02000312,8.6,,,,8.25,9.2,7.5,7.0,5.75
305,02000313,8.4,7.5,7.75,5.75,7.0,9.2,,,
306,02000314,8.0,5.75,6.25,5.75,7.75,9.0,,,
307,02000315,8.2,7.25,8.5,7.25,6.25,8.6,,,
308,02000316,7.4,5.75,5.75,6.0,6.0,8.8,,,
309,02000317,6.8,5.25,7.5,2.75,5.75,8.2,,,
310,02000318,7.8,6.5,8.25,4.25,7.25,9.0,,,
311,02000319,8.4,8.0,7.25,7.75,7.5,9.8,,,
312,02000320,8.0,,,,8.5,8.2,7.5,8.0,6.5
313,02000321,8.2,8.0,8.0,6.5,6.75,8.2,,,
314,02000322,8.4,,,,7.75,9.2,8.5,8.75,6.0
315,02000323,6.8,,,,8.0,9.2,8.75,7.0,6.75
316,02000324,7.6,,,,6.83,9.0,8.5,7.25,7.25
317,02000325,7.6,5.0,5.5,6.0,6.75,8.8,,,
318,02000326,8.2,,,,7.0,9.2,9.25,7.0,6.75
319,02000327,8.4,6.75,7.0,5.25,4.0,9.6,,,
320,02000328,6.0,5.75,5.75,5.75,7.0,9.2,,,
321,02000329,8.2,8.0,8.0,6.5,7.0,7.8,,,
322,02000330,7.4,7.5,6.75,4.5,8.0,7.4,,,
323,02000332,9.4,7.75,8.25,6.5,6.75,7.4,,,
324,02000333,8.2,7.75,6.25,6.75,6.0,9.2,,,
325,02000334,7.8,6.75,9.0,5.25,5.5,6.6,,,
326,02000335,7.2,6.0,7.0,5.5,6.5,8.6,,,
327,02000336,7.4,4.25,7.0,7.0,6.0,,,,
328,02000337,8.4,7.0,8.5,7.25,7.25,6.2,,,
329,02000338,8.2,7.5,5.75,6.0,6.25,9.4,,,
330,02000339,7.8,7.5,7.25,7.0,7.75,8.0,,,
331,02000340,7.8,7.5,8.25,5.5,6.75,8.8,,,
332,02000341,8.0,7.75,4.25,5.5,5.66,9.2,,,
333,02000342,9.4,7.5,4.75,4.5,6.5,9.4,,,
334,02000343,8.6,8.0,7.25,4.0,6.75,9.2,,,
335,02000344,7.0,,,,6.0,8.6,7.75,7.0,6.0
336,02000345,8.0,,,,7.75,9.4,9.0,7.25,7.0
337,02000346,9.4,8.0,6.5,3.5,7.0,9.0,,,
338,02000347,8.0,7.75,8.0,5.25,6.5,8.0,,,
339,02000348,8.8,8.25,6.0,5.0,6.25,9.2,,,
340,02000349,8.2,5.5,7.75,8.0,6.25,8.2,,,
341,02000350,8.8,7.0,8.5,8.25,8.25,9.4,,,
342,02000351,9.2,8.5,8.75,3.0,7.0,8.6,,,
343,02000352,8.8,7.5,8.0,7.0,7.75,8.6,,,
344,02000353,7.4,6.25,6.5,4.75,7.0,7.0,,,
345,02000355,8.2,7.5,7.25,5.0,3.75,6.4,,,
346,02000356,8.2,7.0,6.0,7.25,7.25,8.6,,,
347,02000357,9.2,7.75,8.75,3.25,5.5,4.6,,,
348,02000358,8.4,8.25,8.5,4.75,7.75,8.6,,,
349,02000359,8.4,7.0,7.0,4.0,7.0,9.2,,,
350,02000360,8.4,6.0,7.5,4.75,7.0,9.2,,,
351,02000361,9.2,8.5,7.0,7.0,7.5,8.4,,,
352,02000362,7.8,,,,8.0,9.0,9.5,7.75,4.75
353,02000363,7.8,6.75,6.75,3.5,6.25,8.6,,,
354,02000364,7.6,,,,7.5,9.4,8.5,8.25,7.25
355,02000365,8.6,8.25,7.75,6.5,6.75,7.4,,,
356,02000366,5.2,,,,7.5,9.4,8.0,7.0,7.0
357,02000367,7.6,,,,6.75,8.8,8.25,8.0,7.5
358,02000368,8.0,,,,9.0,8.8,9.75,7.5,7.5
359,02000369,7.6,6.5,7.25,5.5,5.75,8.0,,,
360,02000370,8.0,,,,7.0,8.6,9.0,6.5,4.0
361,02000372,8.2,7.0,7.5,4.25,7.0,8.6,,,
362,02000373,8.2,6.5,6.75,6.0,6.25,7.6,,,
363,02000374,6.0,,,,7.0,8.2,8.5,5.5,4.5
364,02000375,8.2,4.25,7.75,7.5,6.5,8.0,,,
365,02000376,7.6,,,,7.0,9.4,7.75,8.0,5.75
366,02000377,8.6,8.0,6.5,4.75,5.0,9.6,,,
367,02000378,8.2,6.75,7.0,5.5,6.75,9.0,,,
368,02000379,7.4,7.75,8.0,3.5,6.25,6.8,,,
369,02000380,7.8,,,,7.5,9.8,7.5,7.5,8.0
370,02000381,8.2,,,,8.25,9.0,8.25,7.0,5.5
371,02000383,8.0,7.0,5.75,5.25,7.25,9.6,,,
372,02000384,8.0,8.5,7.25,5.25,7.25,8.6,,,
373,02000385,9.2,8.25,8.0,8.0,6.5,9.6,,,
374,02000386,7.0,5.5,5.0,3.0,6.5,7.6,,,
375,02000387,8.4,6.75,8.25,8.5,6.75,7.6,,,
376,02000388,9.0,6.5,7.5,3.75,5.5,8.4,,,
377,02000389,8.0,7.75,8.0,5.5,5.0,8.6,,,
378,02000390,9.0,8.0,6.75,3.75,6.5,7.6,,,
379,02000391,8.0,,,,7.0,9.6,8.75,8.0,8.0
380,02000392,8.8,9.0,7.5,8.25,7.0,9.4,,,
381,02000393,9.0,8.75,8.0,5.75,7.0,8.2,,,
382,02000394,8.8,7.5,7.5,4.25,7.0,9.6,,,
383,02000395,8.0,7.5,7.25,6.25,7.75,8.8,,,
384,02000396,9.0,6.0,8.0,9.0,6.0,8.4,,,
385,02000397,8.4,7.25,8.75,7.25,8.25,8.8,,,
386,02000398,8.6,8.25,7.75,6.5,7.75,9.2,,,
387,02000399,8.6,7.0,5.0,5.0,8.5,7.8,,,
388,02000400,7.6,4.75,4.5,3.25,5.0,8.6,,,
389,02000401,8.2,,,,8.0,9.0,8.75,7.75,7.5
390,02000402,8.4,7.5,5.0,4.25,6.0,9.4,,,
391,02000403,7.6,6.5,8.25,8.5,7.0,6.6,,,
392,02000404,7.8,7.25,7.75,7.25,8.75,7.0,,,
393,02000405,6.8,,,,8.25,8.4,8.5,6.75,7.75
394,02000406,8.0,,,,8.5,9.0,9.5,7.75,5.75
395,02000407,8.8,6.0,7.25,4.0,6.5,9.4,,,
396,02000408,8.4,7.5,7.25,6.5,6.5,8.6,,,
397,02000409,6.4,,,,7.5,8.4,7.5,7.25,3.5
398,02000410,7.0,4.0,5.75,4.75,6.75,9.0,,,
399,02000411,7.8,,,,7.25,9.4,8.25,9.0,8.75
400,02000412,8.2,7.0,8.0,5.75,6.25,8.8,,,
401,02000413,7.6,,,,6.5,8.0,7.5,7.25,6.75
402,02000414,8.4,7.25,6.5,6.5,7.0,9.6,,,
403,02000415,8.6,8.0,5.75,5.25,6.5,8.8,,,
404,02000416,8.4,,,,7.75,9.4,9.25,6.0,5.75
405,02000417,6.6,,,,7.0,9.8,9.0,8.25,7.5
406,02000418,8.6,8.25,7.5,4.75,6.58,9.0,,,
407,02000419,8.2,7.25,7.25,5.5,5.25,9.0,,,
408,02000420,7.2,4.75,8.0,8.25,5.5,9.4,,,
409,02000421,9.0,7.75,7.75,8.75,6.0,9.0,,,
410,02000422,7.4,7.25,3.5,4.5,5.0,9.4,,,
411,02000423,8.2,7.25,7.75,7.75,8.0,9.4,,,
412,02000424,8.0,6.75,7.0,6.75,6.25,8.2,,,
413,02000425,8.6,6.25,6.5,6.0,7.75,,,,
414,02000426,8.0,,,,8.0,,9.5,8.0,5.25
415,02000427,7.2,8.0,7.75,7.25,8.5,,,,
416,02000428,8.2,,,,7.75,8.8,10.0,8.0,8.0
417,02000431,7.6,,,,7.0,8.4,7.25,6.5,4.75
418,02000432,7.6,8.0,7.75,4.5,7.0,8.8,,,
419,02000433,7.4,7.0,3.75,4.25,6.5,8.8,,,
420,02000434,8.6,7.5,6.5,5.25,5.75,7.8,,,
421,02000435,7.4,7.0,5.25,5.75,7.75,7.8,,,
422,02000436,6.6,,,,7.25,8.2,7.25,7.5,4.75
423,02000437,8.6,6.0,5.75,4.5,7.5,8.0,,,
424,02000438,7.8,,,,7.0,8.4,8.25,8.25,7.0
425,02000439,8.2,,,,7.25,8.8,9.5,7.5,6.0
426,02000440,7.8,,,,7.5,8.6,9.0,7.25,4.0
427,02000441,7.6,7.0,5.0,3.25,7.25,9.4,,,
428,02000442,7.8,6.75,4.5,6.0,5.75,9.0,,,
429,02000443,8.4,6.5,7.25,3.0,6.0,8.0,,,
430,02000444,6.8,4.25,3.75,4.75,6.25,9.0,,,
431,02000445,9.2,8.25,7.5,5.0,6.5,9.4,,,
432,02000446,8.0,6.0,6.75,3.25,6.5,9.2,,,
433,02000448,8.0,6.25,3.0,5.0,7.0,9.0,,,
434,02000449,8.2,,,,7.5,9.6,10.0,8.25,7.5
435,02000450,8.2,6.25,8.0,8.75,7.25,7.6,,,
436,02000451,8.0,6.0,8.25,8.5,6.5,8.4,,,
437,02000452,8.2,7.0,7.25,6.0,5.75,9.0,,,
438,02000453,8.0,3.75,5.5,6.5,7.25,7.0,,,
439,02000454,8.6,,,,7.25,9.2,8.5,7.25,6.25
440,02000455,8.0,7.0,8.0,8.0,6.0,8.8,,,
441,02000456,8.0,,,,7.75,9.2,8.0,6.5,7.0
442,02000457,8.0,5.75,6.25,4.5,7.25,9.0,,,
443,02000458,7.6,6.0,5.0,4.0,7.25,,,,
444,02000459,8.0,6.75,5.75,5.25,6.5,8.8,,,
445,02000460,8.6,7.75,5.5,3.25,6.25,9.0,,,
446,02000461,8.0,,,,7.75,8.8,8.75,8.25,7.25
447,02000462,7.6,7.25,7.0,8.5,6.5,9.2,,,
448,02000463,8.0,6.5,7.75,4.0,6.5,10.0,,,
449,02000464,7.6,8.0,7.5,3.5,5.5,7.4,,,
450,02000466,7.4,8.0,6.0,5.5,6.75,8.8,,,
451,02000467,9.4,7.75,7.5,7.25,7.25,9.4,,,
452,02000468,8.4,7.0,6.25,5.75,8.0,9.0,,,
453,02000469,8.8,7.0,6.25,7.25,7.75,9.8,,,
454,02000470,7.8,6.25,6.75,4.25,8.0,7.6,,,
455,02000471,7.6,,,,7.5,9.6,9.25,7.0,7.25
456,02000472,7.0,,,,7.58,9.4,8.5,8.0,7.0
457,02000473,8.2,7.5,6.0,5.0,7.0,9.4,,,
458,02000474,8.0,5.25,8.0,7.75,7.75,8.8,,,
459,02000475,6.4,,,,8.25,9.4,8.25,6.75,7.5
460,02000476,8.2,8.25,6.25,5.25,8.75,9.2,,,
461,02000478,8.0,,,,8.25,9.0,9.25,7.5,7.0
462,02000479,8.6,,,,7.25,8.4,8.5,7.0,5.25
463,02000480,7.8,7.75,6.0,5.5,6.75,8.0,,,
464,02000481,8.0,5.25,6.5,6.0,6.25,9.0,,,
465,02000482,5.2,,,,8.0,9.0,4.75,6.5,5.5
466,02000484,7.2,,,,7.0,9.0,8.25,8.0,5.5
467,02000485,6.8,6.25,4.75,4.75,5.0,8.8,,,
468,02000486,8.2,6.75,6.25,3.0,4.5,9.4,,,
469,02000487,7.8,7.0,5.75,6.25,7.0,9.0,,,
470,02000488,6.8,,,,8.0,9.6,8.0,6.5,4.5
471,02000489,8.4,8.25,6.25,4.75,6.5,9.2,,,
472,02000490,8.8,7.5,8.5,7.0,6.0,,,,
473,02000491,7.4,,,,7.5,9.6,8.75,7.75,6.0
474,02000492,8.4,,,,7.25,9.2,9.75,8.5,7.75
475,02000493,7.4,,,,7.25,6.8,9.5,7.75,6.25
476,02000494,8.4,,,,6.5,6.6,9.0,8.0,7.5
477,02000495,6.4,5.0,6.5,4.5,6.25,5.0,,,
478,02000496,8.0,,,,8.25,9.0,9.0,7.25,8.5
